time,amplitude(t),phase(t)
0,7.57059e-08,0
1.28e-07,2.6483e-07,-1.56965
2.56e-07,4.19044e-07,-1.56658
3.84e-07,2.91574e-07,-1.54043
5.12e-07,4.92433e-07,1.50242
6.4e-07,2.22232e-06,1.53058
7.68e-07,4.85475e-06,1.53359
8.96e-07,8.37561e-06,1.53312
1.024e-06,1.29454e-05,1.53137
1.152e-06,1.86214e-05,1.52909
1.28e-06,2.55988e-05,1.52629
1.408e-06,3.43378e-05,1.52285
1.536e-06,4.51169e-05,1.51904
1.664e-06,5.79714e-05,1.51516
1.792e-06,7.2996e-05,1.51127
1.92e-06,9.0355e-05,1.50738
2.048e-06,0.000110032,1.50357
2.176e-06,0.000131891,1.49993
2.304e-06,0.000156063,1.49635
2.432e-06,0.000182767,1.49277
2.56e-06,0.00021211,1.48917
2.688e-06,0.000244262,1.48555
2.816e-06,0.000279146,1.48195
2.944e-06,0.000316623,1.47843
3.072e-06,0.000356808,1.47494
3.2e-06,0.000399689,1.4715
3.328e-06,0.000445143,1.46813
3.456e-06,0.000493052,1.46485
3.584e-06,0.000543452,1.46162
3.712e-06,0.000596412,1.45842
3.84e-06,0.000651785,1.45529
3.968e-06,0.00070949,1.45221
4.096e-06,0.000769518,1.44919
4.224e-06,0.000831754,1.44622
4.352e-06,0.000895994,1.44333
4.48e-06,0.000962138,1.44052
4.608e-06,0.00103033,1.43774
4.736e-06,0.00110069,1.43498
4.864e-06,0.00117295,1.43227
4.992e-06,0.00124692,1.42962
5.12e-06,0.00132259,1.42702
5.248e-06,0.00139987,1.42447
5.376e-06,0.00147876,1.42196
5.504e-06,0.00155928,1.41949
5.632e-06,0.0016414,1.41704
5.76e-06,0.00172502,1.41463
5.888e-06,0.0018099,1.41227
6.016e-06,0.00189599,1.40996
6.144e-06,0.00198342,1.40768
6.272e-06,0.0020721,1.40543
6.4e-06,0.00216181,1.40323
6.528e-06,0.0022524,1.40109
6.656e-06,0.0023438,1.399
6.784e-06,0.00243596,1.39697
6.912e-06,0.00252884,1.39498
7.04e-06,0.00262255,1.39303
7.168e-06,0.00271731,1.39108
7.296e-06,0.00281322,1.38912
7.424e-06,0.00291019,1.38716
7.552e-06,0.00300797,1.38523
7.68e-06,0.00310647,1.38332
7.808e-06,0.00320581,1.38143
7.936e-06,0.00330619,1.37952
8.064e-06,0.00340772,1.3776
8.192e-06,0.00351037,1.37565
8.32e-06,0.00361424,1.37368
8.448e-06,0.00371956,1.37166
8.576e-06,0.00382646,1.36959
8.704e-06,0.00393488,1.36746
8.832e-06,0.00404494,1.36528
8.96e-06,0.00415699,1.36302
9.088e-06,0.00427119,1.36066
9.216e-06,0.00438742,1.35823
9.344e-06,0.00450581,1.35571
9.472e-06,0.00462658,1.35309
9.6e-06,0.00474997,1.35037
9.728e-06,0.00487614,1.34753
9.856e-06,0.00500514,1.34458
9.984e-06,0.00513711,1.34151
1.0112e-05,0.00527234,1.33832
1.024e-05,0.00541097,1.335
1.0368e-05,0.00555299,1.33155
1.0496e-05,0.00569853,1.32799
1.0624e-05,0.00584778,1.3243
1.0752e-05,0.00600078,1.3205
1.088e-05,0.00615771,1.31657
1.1008e-05,0.0063188,1.31252
1.1136e-05,0.00648401,1.30836
1.1264e-05,0.00665336,1.3041
1.1392e-05,0.00682698,1.29974
1.152e-05,0.00700504,1.29527
1.1648e-05,0.00718777,1.29069
1.1776e-05,0.00737532,1.28601
1.1904e-05,0.00756771,1.28123
1.2032e-05,0.00776511,1.27636
1.216e-05,0.00796764,1.27139
1.2288e-05,0.00817527,1.26635
1.2416e-05,0.008388,1.26123
1.2544e-05,0.00860583,1.25605
1.2672e-05,0.00882882,1.25081
1.28e-05,0.00905704,1.24552
1.2928e-05,0.00929054,1.24019
1.3056e-05,0.00952925,1.23482
1.3184e-05,0.009773,1.22942
1.3312e-05,0.0100217,1.22402
1.344e-05,0.0102754,1.21861
1.3568e-05,0.0105341,1.21319
1.3696e-05,0.010798,1.20776
1.3824e-05,0.0110667,1.20234
1.3952e-05,0.0113402,1.19694
1.408e-05,0.0116182,1.19156
1.4208e-05,0.0119006,1.18622
1.4336e-05,0.0121873,1.18092
1.4464e-05,0.0124784,1.17565
1.4592e-05,0.0127738,1.17042
1.472e-05,0.0130737,1.16522
1.4848e-05,0.0133777,1.16006
1.4976e-05,0.0136858,1.15494
1.5104e-05,0.0139978,1.14988
1.5232e-05,0.0143136,1.14486
1.536e-05,0.014633,1.13991
1.5488e-05,0.014956,1.13501
1.5616e-05,0.0152824,1.13016
1.5744e-05,0.015612,1.12538
1.5872e-05,0.0159447,1.12067
1.6e-05,0.0162803,1.11602
1.6128e-05,0.0166189,1.11143
1.6256e-05,0.0169604,1.1069
1.6384e-05,0.0173048,1.10243
1.6512e-05,0.017652,1.09802
1.664e-05,0.0180022,1.09365
1.6768e-05,0.0183551,1.08934
1.6896e-05,0.0187106,1.08508
1.7024e-05,0.0190685,1.08088
1.7152e-05,0.0194289,1.07673
1.728e-05,0.0197917,1.07263
1.7408e-05,0.0201571,1.06857
1.7536e-05,0.0205249,1.06456
1.7664e-05,0.0208951,1.0606
1.7792e-05,0.0212677,1.05667
1.792e-05,0.0216428,1.05278
1.8048e-05,0.0220202,1.04893
1.8176e-05,0.0224002,1.0451
1.8304e-05,0.022783,1.04129
1.8432e-05,0.0231684,1.03751
1.856e-05,0.0235562,1.03376
1.8688e-05,0.0239465,1.03003
1.8816e-05,0.0243394,1.02632
1.8944e-05,0.024735,1.02262
1.9072e-05,0.0251336,1.01894
1.92e-05,0.0255353,1.01525
1.9328e-05,0.0259403,1.01156
1.9456e-05,0.0263485,1.00786
1.9584e-05,0.0267601,1.00416
1.9712e-05,0.0271748,1.00046
1.984e-05,0.0275929,0.996754
1.9968e-05,0.0280145,0.993037
2.0096e-05,0.0284398,0.989304
2.0224e-05,0.0288688,0.985554
2.0352e-05,0.0293017,0.981787
2.048e-05,0.0297385,0.977998
2.0608e-05,0.0301793,0.974187
2.0736e-05,0.0306242,0.970353
2.0864e-05,0.0310732,0.966496
2.0992e-05,0.0315265,0.962613
2.112e-05,0.0319841,0.958705
2.1248e-05,0.032446,0.954772
2.1376e-05,0.0329122,0.950813
2.1504e-05,0.0333828,0.946829
2.1632e-05,0.0338577,0.942823
2.176e-05,0.0343371,0.938792
2.1888e-05,0.0348212,0.934732
2.2016e-05,0.03531,0.930641
2.2144e-05,0.0358037,0.926518
2.2272e-05,0.0363022,0.922366
2.24e-05,0.0368054,0.918188
2.2528e-05,0.0373134,0.913986
2.2656e-05,0.0378259,0.909764
2.2784e-05,0.038343,0.905525
2.2912e-05,0.0388645,0.901271
2.304e-05,0.0393904,0.897003
2.3168e-05,0.0399207,0.892724
2.3296e-05,0.0404554,0.888432
2.3424e-05,0.0409947,0.884124
2.3552e-05,0.0415386,0.879802
2.368e-05,0.0420868,0.87547
2.3808e-05,0.0426391,0.871136
2.3936e-05,0.0431953,0.866803
2.4064e-05,0.0437555,0.862472
2.4192e-05,0.0443195,0.858142
2.432e-05,0.0448874,0.853815
2.4448e-05,0.045459,0.849492
2.4576e-05,0.0460342,0.845178
2.4704e-05,0.0466127,0.840879
2.4832e-05,0.0471943,0.836596
2.496e-05,0.0477791,0.832327
2.5088e-05,0.0483671,0.828072
2.5216e-05,0.048958,0.823839
2.5344e-05,0.0495516,0.819627
2.5472e-05,0.0501479,0.815437
2.56e-05,0.0507467,0.811271
2.5728e-05,0.051348,0.807128
2.5856e-05,0.0519518,0.80301
2.5984e-05,0.0525578,0.798919
2.6112e-05,0.0531658,0.794857
2.624e-05,0.0537758,0.790825
2.6368e-05,0.0543877,0.786823
2.6496e-05,0.0550014,0.782851
2.6624e-05,0.0556167,0.77891
2.6752e-05,0.0562336,0.775002
2.688e-05,0.056852,0.771125
2.7008e-05,0.057472,0.767278
2.7136e-05,0.0580934,0.76346
2.7264e-05,0.0587162,0.759671
2.7392e-05,0.0593405,0.755908
2.752e-05,0.0599662,0.752172
2.7648e-05,0.0605932,0.748462
2.7776e-05,0.0612216,0.744776
2.7904e-05,0.0618511,0.741118
2.8032e-05,0.0624817,0.737488
2.816e-05,0.0631135,0.733881
2.8288e-05,0.0637467,0.730293
2.8416e-05,0.064381,0.726726
2.8544e-05,0.0650165,0.723181
2.8672e-05,0.0656531,0.719655
2.88e-05,0.066291,0.716146
2.8928e-05,0.0669301,0.712652
2.9056e-05,0.0675706,0.709169
2.9184e-05,0.0682126,0.705696
2.9312e-05,0.068856,0.702233
2.944e-05,0.0695007,0.698778
2.9568e-05,0.0701471,0.695328
2.9696e-05,0.0707949,0.691882
2.9824e-05,0.0714444,0.688439
2.9952e-05,0.0720954,0.685
3.008e-05,0.0727479,0.681562
3.0208e-05,0.073402,0.678126
3.0336e-05,0.0740577,0.67469
3.0464e-05,0.0747151,0.671253
3.0592e-05,0.0753743,0.66781
3.072e-05,0.0760353,0.66436
3.0848e-05,0.0766982,0.660903
3.0976e-05,0.077363,0.657439
3.1104e-05,0.0780295,0.653969
3.1232e-05,0.0786979,0.650491
3.136e-05,0.0793683,0.647004
3.1488e-05,0.0800406,0.643505
3.1616e-05,0.0807148,0.639998
3.1744e-05,0.0813907,0.636483
3.1872e-05,0.0820685,0.632961
3.2e-05,0.0827481,0.629429
3.2128e-05,0.0834295,0.625889
3.2256e-05,0.0841126,0.622341
3.2384e-05,0.0847974,0.618788
3.2512e-05,0.085484,0.615227
3.264e-05,0.0861722,0.611657
3.2768e-05,0.0868623,0.608077
3.2896e-05,0.0875541,0.604489
3.3024e-05,0.0882474,0.600897
3.3152e-05,0.0889422,0.5973
3.328e-05,0.0896384,0.593701
3.3408e-05,0.090336,0.590099
3.3536e-05,0.0910349,0.586496
3.3664e-05,0.0917352,0.582891
3.3792e-05,0.0924366,0.579285
3.392e-05,0.0931392,0.57568
3.4048e-05,0.0938429,0.572078
3.4176e-05,0.0945475,0.568478
3.4304e-05,0.095253,0.564884
3.4432e-05,0.0959592,0.561299
3.456e-05,0.0966659,0.557724
3.4688e-05,0.0973732,0.554161
3.4816e-05,0.0980809,0.550608
3.4944e-05,0.0987891,0.547068
3.5072e-05,0.0994976,0.54354
3.52e-05,0.100206,0.540024
3.5328e-05,0.100915,0.53652
3.5456e-05,0.101625,0.533031
3.5584e-05,0.102334,0.529558
3.5712e-05,0.103043,0.526105
3.584e-05,0.103752,0.522672
3.5968e-05,0.10446,0.519259
3.6096e-05,0.105168,0.515869
3.6224e-05,0.105876,0.512502
3.6352e-05,0.106583,0.509156
3.648e-05,0.10729,0.505831
3.6608e-05,0.107996,0.502528
3.6736e-05,0.108701,0.499249
3.6864e-05,0.109406,0.495993
3.6992e-05,0.110109,0.492761
3.712e-05,0.110812,0.489555
3.7248e-05,0.111514,0.486373
3.7376e-05,0.112215,0.483217
3.7504e-05,0.112915,0.480087
3.7632e-05,0.113614,0.476979
3.776e-05,0.114312,0.473893
3.7888e-05,0.115008,0.470832
3.8016e-05,0.115704,0.467792
3.8144e-05,0.116399,0.464774
3.8272e-05,0.117092,0.461778
3.84e-05,0.117784,0.458803
3.8528e-05,0.118475,0.45585
3.8656e-05,0.119164,0.452916
3.8784e-05,0.119853,0.450001
3.8912e-05,0.12054,0.447105
3.904e-05,0.121226,0.444228
3.9168e-05,0.12191,0.441368
3.9296e-05,0.122594,0.438523
3.9424e-05,0.123275,0.435694
3.9552e-05,0.123956,0.43288
3.968e-05,0.124635,0.430077
3.9808e-05,0.125314,0.427286
3.9936e-05,0.12599,0.424506
4.0064e-05,0.126666,0.421738
4.0192e-05,0.12734,0.418979
4.032e-05,0.128013,0.416228
4.0448e-05,0.128684,0.413484
4.0576e-05,0.129355,0.410746
4.0704e-05,0.130024,0.408011
4.0832e-05,0.130692,0.40528
4.096e-05,0.131358,0.402553
4.1088e-05,0.132023,0.399828
4.1216e-05,0.132687,0.397105
4.1344e-05,0.133349,0.394382
4.1472e-05,0.134011,0.391659
4.16e-05,0.13467,0.388937
4.1728e-05,0.135329,0.386217
4.1856e-05,0.135986,0.3835
4.1984e-05,0.136641,0.380786
4.2112e-05,0.137296,0.378074
4.224e-05,0.137948,0.375363
4.2368e-05,0.138599,0.372651
4.2496e-05,0.139249,0.36994
4.2624e-05,0.139897,0.367231
4.2752e-05,0.140544,0.364525
4.288e-05,0.141189,0.361823
4.3008e-05,0.141832,0.359125
4.3136e-05,0.142474,0.35643
4.3264e-05,0.143114,0.35374
4.3392e-05,0.143752,0.351054
4.352e-05,0.144388,0.348374
4.3648e-05,0.145023,0.345699
4.3776e-05,0.145656,0.343029
4.3904e-05,0.146288,0.340365
4.4032e-05,0.146917,0.337709
4.416e-05,0.147545,0.335062
4.4288e-05,0.14817,0.332425
4.4416e-05,0.148794,0.3298
4.4544e-05,0.149416,0.327185
4.4672e-05,0.150036,0.324583
4.48e-05,0.150654,0.321994
4.4928e-05,0.151271,0.319419
4.5056e-05,0.151885,0.316859
4.5184e-05,0.152497,0.314316
4.5312e-05,0.153107,0.31179
4.544e-05,0.153715,0.309284
4.5568e-05,0.154321,0.306798
4.5696e-05,0.154925,0.304334
4.5824e-05,0.155527,0.301892
4.5952e-05,0.156127,0.299472
4.608e-05,0.156725,0.297072
4.6208e-05,0.157321,0.294695
4.6336e-05,0.157914,0.29234
4.6464e-05,0.158506,0.290009
4.6592e-05,0.159095,0.287702
4.672e-05,0.159683,0.285419
4.6848e-05,0.160268,0.283161
4.6976e-05,0.160851,0.28093
4.7104e-05,0.161432,0.278725
4.7232e-05,0.162011,0.276546
4.736e-05,0.162588,0.274393
4.7488e-05,0.163163,0.272263
4.7616e-05,0.163735,0.270159
4.7744e-05,0.164306,0.26808
4.7872e-05,0.164874,0.266026
4.8e-05,0.16544,0.263995
4.8128e-05,0.166004,0.261988
4.8256e-05,0.166566,0.260004
4.8384e-05,0.167126,0.258043
4.8512e-05,0.167684,0.256107
4.864e-05,0.168239,0.254194
4.8768e-05,0.168792,0.252306
4.8896e-05,0.169344,0.250441
4.9024e-05,0.169893,0.248599
4.9152e-05,0.17044,0.246778
4.928e-05,0.170984,0.244977
4.9408e-05,0.171527,0.243197
4.9536e-05,0.172067,0.241436
4.9664e-05,0.172605,0.239693
4.9792e-05,0.173141,0.237966
4.992e-05,0.173674,0.236257
5.0048e-05,0.174205,0.234565
5.0176e-05,0.174734,0.23289
5.0304e-05,0.175261,0.231231
5.0432e-05,0.175785,0.229587
5.056e-05,0.176306,0.227957
5.0688e-05,0.176826,0.22634
5.0816e-05,0.177343,0.224736
5.0944e-05,0.177857,0.223142
5.1072e-05,0.178369,0.221561
5.12e-05,0.178878,0.219993
5.1328e-05,0.179385,0.218436
5.1456e-05,0.179889,0.216891
5.1584e-05,0.180391,0.215355
5.1712e-05,0.180891,0.213827
5.184e-05,0.181387,0.212308
5.1968e-05,0.181881,0.210798
5.2096e-05,0.182372,0.209296
5.2224e-05,0.182861,0.207804
5.2352e-05,0.183347,0.206322
5.248e-05,0.183831,0.204849
5.2608e-05,0.184312,0.203386
5.2736e-05,0.184791,0.201933
5.2864e-05,0.185267,0.200491
5.2992e-05,0.185741,0.199058
5.312e-05,0.186212,0.197634
5.3248e-05,0.186681,0.19622
5.3376e-05,0.187147,0.194816
5.3504e-05,0.187611,0.193424
5.3632e-05,0.188073,0.192043
5.376e-05,0.188532,0.190676
5.3888e-05,0.188989,0.189322
5.4016e-05,0.189445,0.187983
5.4144e-05,0.189898,0.186658
5.4272e-05,0.190349,0.185346
5.44e-05,0.190799,0.18405
5.4528e-05,0.191246,0.18277
5.4656e-05,0.191692,0.181506
5.4784e-05,0.192136,0.18026
5.4912e-05,0.192579,0.179032
5.504e-05,0.19302,0.177823
5.5168e-05,0.19346,0.176632
5.5296e-05,0.193899,0.175461
5.5424e-05,0.194336,0.174312
5.5552e-05,0.194773,0.173184
5.568e-05,0.195208,0.172077
5.5808e-05,0.195643,0.170992
5.5936e-05,0.196077,0.169929
5.6064e-05,0.19651,0.16889
5.6192e-05,0.196943,0.167874
5.632e-05,0.197375,0.166881
5.6448e-05,0.197807,0.165912
5.6576e-05,0.198239,0.164967
5.6704e-05,0.19867,0.164046
5.6832e-05,0.199101,0.163149
5.696e-05,0.199531,0.162276
5.7088e-05,0.199962,0.161428
5.7216e-05,0.200393,0.160604
5.7344e-05,0.200824,0.159804
5.7472e-05,0.201254,0.159029
5.76e-05,0.201685,0.158278
5.7728e-05,0.202117,0.157552
5.7856e-05,0.202549,0.15685
5.7984e-05,0.202981,0.156173
5.8112e-05,0.203413,0.155519
5.824e-05,0.203846,0.154888
5.8368e-05,0.204279,0.15428
5.8496e-05,0.204712,0.153693
5.8624e-05,0.205146,0.153129
5.8752e-05,0.20558,0.152586
5.888e-05,0.206014,0.152064
5.9008e-05,0.206449,0.151563
5.9136e-05,0.206884,0.151082
5.9264e-05,0.207319,0.15062
5.9392e-05,0.207754,0.150178
5.952e-05,0.20819,0.149754
5.9648e-05,0.208626,0.149348
5.9776e-05,0.209062,0.148959
5.9904e-05,0.209499,0.148588
6.0032e-05,0.209935,0.148234
6.016e-05,0.210372,0.147895
6.0288e-05,0.210808,0.147573
6.0416e-05,0.211245,0.147265
6.0544e-05,0.211682,0.146971
6.0672e-05,0.212118,0.146692
6.08e-05,0.212554,0.146425
6.0928e-05,0.21299,0.146171
6.1056e-05,0.213426,0.145928
6.1184e-05,0.213861,0.145698
6.1312e-05,0.214296,0.145479
6.144e-05,0.214731,0.145271
6.1568e-05,0.215165,0.145074
6.1696e-05,0.215598,0.144886
6.1824e-05,0.216031,0.144709
6.1952e-05,0.216464,0.144543
6.208e-05,0.216897,0.144386
6.2208e-05,0.217329,0.14424
6.2336e-05,0.217761,0.144102
6.2464e-05,0.218192,0.143973
6.2592e-05,0.218623,0.143852
6.272e-05,0.219053,0.143741
6.2848e-05,0.219483,0.143638
6.2976e-05,0.219913,0.143545
6.3104e-05,0.220343,0.143461
6.3232e-05,0.220773,0.143387
6.336e-05,0.221203,0.143322
6.3488e-05,0.221633,0.143266
6.3616e-05,0.222064,0.14322
6.3744e-05,0.222495,0.143183
6.3872e-05,0.222926,0.143154
6.4e-05,0.223358,0.143136
6.4128e-05,0.223791,0.143127
6.4256e-05,0.224224,0.143128
6.4384e-05,0.224659,0.14314
6.4512e-05,0.225095,0.143161
6.464e-05,0.225532,0.143192
6.4768e-05,0.22597,0.143233
6.4896e-05,0.22641,0.143285
6.5024e-05,0.226851,0.143346
6.5152e-05,0.227295,0.143418
6.528e-05,0.227741,0.143501
6.5408e-05,0.228189,0.143595
6.5536e-05,0.228639,0.143699
6.5664e-05,0.229092,0.143814
6.5792e-05,0.229547,0.143939
6.592e-05,0.230006,0.144076
6.6048e-05,0.230468,0.144223
6.6176e-05,0.230932,0.144381
6.6304e-05,0.2314,0.144549
6.6432e-05,0.231871,0.144726
6.656e-05,0.232346,0.144914
6.6688e-05,0.232824,0.145112
6.6816e-05,0.233306,0.14532
6.6944e-05,0.233791,0.145538
6.7072e-05,0.234281,0.145765
6.72e-05,0.234775,0.146002
6.7328e-05,0.235272,0.146247
6.7456e-05,0.235774,0.1465
6.7584e-05,0.236279,0.146762
6.7712e-05,0.236788,0.147031
6.784e-05,0.237301,0.147308
6.7968e-05,0.237819,0.147592
6.8096e-05,0.23834,0.147883
6.8224e-05,0.238866,0.148181
6.8352e-05,0.239395,0.148485
6.848e-05,0.239929,0.148796
6.8608e-05,0.240467,0.149111
6.8736e-05,0.241008,0.149432
6.8864e-05,0.241554,0.149757
6.8992e-05,0.242103,0.150087
6.912e-05,0.242655,0.150421
6.9248e-05,0.243212,0.150758
6.9376e-05,0.243771,0.151099
6.9504e-05,0.244334,0.151442
6.9632e-05,0.244901,0.151788
6.976e-05,0.24547,0.152136
6.9888e-05,0.246043,0.152486
7.0016e-05,0.246619,0.152838
7.0144e-05,0.247197,0.153191
7.0272e-05,0.247778,0.153544
7.04e-05,0.248362,0.153898
7.0528e-05,0.248947,0.154253
7.0656e-05,0.249536,0.154607
7.0784e-05,0.250126,0.154962
7.0912e-05,0.250719,0.155316
7.104e-05,0.251314,0.155669
7.1168e-05,0.251911,0.156022
7.1296e-05,0.25251,0.156373
7.1424e-05,0.25311,0.156724
7.1552e-05,0.253712,0.157072
7.168e-05,0.254315,0.157419
7.1808e-05,0.25492,0.157764
7.1936e-05,0.255526,0.158108
7.2064e-05,0.256134,0.158449
7.2192e-05,0.256743,0.158788
7.232e-05,0.257353,0.159124
7.2448e-05,0.257964,0.159458
7.2576e-05,0.258577,0.159789
7.2704e-05,0.259192,0.160117
7.2832e-05,0.259807,0.160442
7.296e-05,0.260425,0.160765
7.3088e-05,0.261043,0.161084
7.3216e-05,0.261663,0.161399
7.3344e-05,0.262285,0.161711
7.3472e-05,0.262908,0.16202
7.36e-05,0.263533,0.162324
7.3728e-05,0.264159,0.162625
7.3856e-05,0.264786,0.162921
7.3984e-05,0.265416,0.163214
7.4112e-05,0.266047,0.163502
7.424e-05,0.26668,0.163785
7.4368e-05,0.267315,0.164063
7.4496e-05,0.267953,0.164337
7.4624e-05,0.268592,0.164605
7.4752e-05,0.269234,0.164868
7.488e-05,0.269878,0.165126
7.5008e-05,0.270524,0.165378
7.5136e-05,0.271173,0.165623
7.5264e-05,0.271825,0.165863
7.5392e-05,0.27248,0.166096
7.552e-05,0.273138,0.166322
7.5648e-05,0.2738,0.166541
7.5776e-05,0.274465,0.166752
7.5904e-05,0.275134,0.166956
7.6032e-05,0.275805,0.167152
7.616e-05,0.276481,0.167341
7.6288e-05,0.277159,0.167521
7.6416e-05,0.277842,0.167693
7.6544e-05,0.278528,0.167857
7.6672e-05,0.279217,0.168011
7.68e-05,0.279911,0.168157
7.6928e-05,0.280608,0.168293
7.7056e-05,0.281309,0.16842
7.7184e-05,0.282014,0.168537
7.7312e-05,0.282723,0.168644
7.744e-05,0.283436,0.168742
7.7568e-05,0.284152,0.168829
7.7696e-05,0.284872,0.168907
7.7824e-05,0.285595,0.168975
7.7952e-05,0.286322,0.169033
7.808e-05,0.287052,0.16908
7.8208e-05,0.287786,0.169117
7.8336e-05,0.288523,0.169144
7.8464e-05,0.289263,0.16916
7.8592e-05,0.290005,0.169167
7.872e-05,0.290751,0.169164
7.8848e-05,0.291499,0.16915
7.8976e-05,0.292249,0.169127
7.9104e-05,0.293002,0.169094
7.9232e-05,0.293758,0.16905
7.936e-05,0.294515,0.168997
7.9488e-05,0.295275,0.168933
7.9616e-05,0.296037,0.16886
7.9744e-05,0.296801,0.168777
7.9872e-05,0.297566,0.168685
8e-05,0.298333,0.168584
8.0128e-05,0.299101,0.168474
8.0256e-05,0.29987,0.168356
8.0384e-05,0.300639,0.168229
8.0512e-05,0.301409,0.168095
8.064e-05,0.30218,0.167953
8.0768e-05,0.30295,0.167803
8.0896e-05,0.303721,0.167645
8.1024e-05,0.304492,0.16748
8.1152e-05,0.305263,0.167308
8.128e-05,0.306034,0.167129
8.1408e-05,0.306805,0.166942
8.1536e-05,0.307575,0.166749
8.1664e-05,0.308345,0.166549
8.1792e-05,0.309114,0.166343
8.192e-05,0.309882,0.16613
8.2048e-05,0.310651,0.165911
8.2176e-05,0.311418,0.165684
8.2304e-05,0.312185,0.165452
8.2432e-05,0.31295,0.165213
8.256e-05,0.313715,0.164968
8.2688e-05,0.314479,0.164717
8.2816e-05,0.315242,0.16446
8.2944e-05,0.316003,0.164197
8.3072e-05,0.316764,0.163928
8.32e-05,0.317524,0.163652
8.3328e-05,0.318283,0.16337
8.3456e-05,0.319041,0.163081
8.3584e-05,0.319798,0.162785
8.3712e-05,0.320553,0.162484
8.384e-05,0.321308,0.162176
8.3968e-05,0.322061,0.161862
8.4096e-05,0.322813,0.161542
8.4224e-05,0.323565,0.161214
8.4352e-05,0.324315,0.160879
8.448e-05,0.325065,0.160536
8.4608e-05,0.325814,0.160185
8.4736e-05,0.326562,0.159827
8.4864e-05,0.327309,0.159461
8.4992e-05,0.328056,0.159086
8.512e-05,0.328802,0.158703
8.5248e-05,0.329547,0.158311
8.5376e-05,0.330292,0.157911
8.5504e-05,0.331036,0.157502
8.5632e-05,0.33178,0.157084
8.576e-05,0.332523,0.156656
8.5888e-05,0.333265,0.156219
8.6016e-05,0.334007,0.155772
8.6144e-05,0.334749,0.155315
8.6272e-05,0.33549,0.154848
8.64e-05,0.336231,0.15437
8.6528e-05,0.336972,0.153881
8.6656e-05,0.337713,0.153381
8.6784e-05,0.338453,0.152871
8.6912e-05,0.339193,0.15235
8.704e-05,0.339932,0.151818
8.7168e-05,0.340671,0.151275
8.7296e-05,0.341409,0.150722
8.7424e-05,0.342147,0.150157
8.7552e-05,0.342885,0.149582
8.768e-05,0.343621,0.148997
8.7808e-05,0.344357,0.148401
8.7936e-05,0.345093,0.147795
8.8064e-05,0.345828,0.147178
8.8192e-05,0.346561,0.146551
8.832e-05,0.347294,0.145914
8.8448e-05,0.348026,0.145269
8.8576e-05,0.348756,0.144615
8.8704e-05,0.349485,0.143953
